wavelength (angstroms),irradiance
1195.0,0.0088615
1196.0,0.014920349999999999
1197.0,0.020979199999999996
1198.0,0.02703805
1199.0,0.0330969
1200.0,0.039155749999999996
1201.0,0.0452146
1202.0,0.05127345
1203.0,0.057332299999999996
1204.0,0.06339115
1205.0,0.06944999999999998
1206.0,0.123315
1207.0,0.17718
1208.0,0.231045
1209.0,0.28491
1210.0,0.338775
1211.0,0.39264
1212.0,0.446505
1213.0,0.50037
1214.0,0.5542349999999999
1215.0,0.6081
1216.0,0.5616599999999999
1217.0,0.51522
1218.0,0.46878
1219.0,0.42234
1220.0,0.3759
1221.0,0.32946
1222.0,0.28302
1223.0,0.23658
1224.0,0.19014000000000003
1225.0,0.14370000000000005
1226.0,0.12995695
1227.0,0.1162139
1228.0,0.10247085
1229.0,0.0887278
1230.0,0.07498475
1231.0,0.06124170000000001
1232.0,0.04749865
1233.0,0.03375560000000001
1234.0,0.020012550000000018
1235.0,0.006269500000000011
1236.0,0.0060501
1237.0,0.0058307
1238.0,0.0056113
1239.0,0.0053919
1240.0,0.0051725
1241.0,0.0049531
1242.0,0.0047337
1243.0,0.004514300000000001
1244.0,0.004294900000000001
1245.0,0.0040755
1246.0,0.00400575
1247.0,0.003936
1248.0,0.00386625
1249.0,0.0037965
1250.0,0.00372675
1251.0,0.003657
1252.0,0.00358725
1253.0,0.0035175
1254.0,0.00344775
1255.0,0.003378
1256.0,0.00345645
1257.0,0.0035349
1258.0,0.00361335
1259.0,0.0036918000000000003
1260.0,0.00377025
1261.0,0.0038487
1262.0,0.00392715
1263.0,0.004005600000000001
1264.0,0.0040840500000000005
1265.0,0.0041625
1266.0,0.00398775
1267.0,0.0038130000000000004
1268.0,0.00363825
1269.0,0.0034635000000000004
1270.0,0.00328875
1271.0,0.003114
1272.0,0.00293925
1273.0,0.0027645
1274.0,0.00258975
1275.0,0.002415
1276.0,0.00236895
1277.0,0.0023229
1278.0,0.00227685
1279.0,0.0022308000000000002
1280.0,0.00218475
1281.0,0.0021387000000000003
1282.0,0.00209265
1283.0,0.0020466
1284.0,0.0020005500000000002
1285.0,0.0019545
1286.0,0.00222585
1287.0,0.0024972
1288.0,0.00276855
1289.0,0.0030399
1290.0,0.00331125
1291.0,0.0035826
1292.0,0.00385395
1293.0,0.0041253
1294.0,0.00439665
1295.0,0.004668
1296.0,0.0055822
1297.0,0.0064964
1298.0,0.0074106
1299.0,0.0083248
1300.0,0.009239
1301.0,0.0101532
1302.0,0.0110674
1303.0,0.011981599999999999
1304.0,0.012895799999999999
1305.0,0.01381
1306.0,0.012877099999999999
1307.0,0.011944199999999999
1308.0,0.011011299999999998
1309.0,0.0100784
1310.0,0.009145499999999999
1311.0,0.008212599999999999
1312.0,0.007279699999999999
1313.0,0.006346799999999999
1314.0,0.005413899999999999
1315.0,0.004480999999999999
1316.0,0.004497849999999999
1317.0,0.0045147
1318.0,0.00453155
1319.0,0.0045484
1320.0,0.00456525
1321.0,0.0045820999999999995
1322.0,0.00459895
1323.0,0.0046158
1324.0,0.00463265
1325.0,0.0046495
1326.0,0.00611505
1327.0,0.0075806
1328.0,0.00904615
1329.0,0.010511699999999999
1330.0,0.011977249999999998
1331.0,0.013442800000000001
1332.0,0.01490835
1333.0,0.0163739
1334.0,0.01783945
1335.0,0.019305
1336.0,0.0178808
1337.0,0.0164566
1338.0,0.0150324
1339.0,0.013608199999999999
1340.0,0.012183999999999999
1341.0,0.0107598
1342.0,0.0093356
1343.0,0.007911399999999999
1344.0,0.0064871999999999985
1345.0,0.005062999999999998
1346.0,0.00497635
1347.0,0.004889699999999999
1348.0,0.00480305
1349.0,0.0047164
1350.0,0.00462975
1351.0,0.0045431
1352.0,0.00445645
1353.0,0.0043698
1354.0,0.0042831499999999995
1355.0,0.0041965
1356.0,0.0041201
1357.0,0.0040437
1358.0,0.0039673
1359.0,0.0038908999999999997
1360.0,0.0038144999999999997
1361.0,0.0037381
1362.0,0.0036617
1363.0,0.0035852999999999996
1364.0,0.0035088999999999997
1365.0,0.0034325
1366.0,0.0034118499999999997
1367.0,0.0033912
1368.0,0.00337055
1369.0,0.0033499
1370.0,0.0033292499999999997
1371.0,0.0033086
1372.0,0.00328795
1373.0,0.0032673
1374.0,0.0032466500000000002
1375.0,0.003226
1376.0,0.00335285
1377.0,0.0034797
1378.0,0.00360655
1379.0,0.0037334000000000004
1380.0,0.00386025
1381.0,0.0039871
1382.0,0.00411395
1383.0,0.0042408
1384.0,0.004367650000000001
1385.0,0.0044945
1386.0,0.0049349500000000004
1387.0,0.005375400000000001
1388.0,0.005815850000000001
1389.0,0.0062563
1390.0,0.0066967500000000004
1391.0,0.007137200000000001
1392.0,0.00757765
1393.0,0.0080181
1394.0,0.00845855
1395.0,0.008899
1396.0,0.00869105
1397.0,0.0084831
1398.0,0.00827515
1399.0,0.0080672
1400.0,0.00785925
1401.0,0.0076513
1402.0,0.0074433500000000005
1403.0,0.0072354
1404.0,0.00702745
1405.0,0.0068195
1406.0,0.0065988
1407.0,0.0063781
1408.0,0.0061574
1409.0,0.0059367000000000005
1410.0,0.005716000000000001
1411.0,0.0054953
1412.0,0.0052746
1413.0,0.0050539
1414.0,0.0048332
1415.0,0.0046125
1416.0,0.00466335
1417.0,0.0047142
1418.0,0.00476505
1419.0,0.0048159
1420.0,0.0048667499999999995
1421.0,0.0049176
1422.0,0.00496845
1423.0,0.0050193
1424.0,0.00507015
1425.0,0.005121
1426.0,0.0051668
1427.0,0.0052125999999999995
1428.0,0.0052584
1429.0,0.005304199999999999
1430.0,0.00535
1431.0,0.0053958
1432.0,0.0054415999999999996
1433.0,0.0054874
1434.0,0.005533199999999999
1435.0,0.005579
1436.0,0.00557815
1437.0,0.0055772999999999994
1438.0,0.00557645
1439.0,0.0055756
1440.0,0.00557475
1441.0,0.0055739
1442.0,0.0055730499999999995
1443.0,0.0055722
1444.0,0.00557135
1445.0,0.0055705
1446.0,0.0056174
1447.0,0.0056643
1448.0,0.0057112
1449.0,0.0057580999999999995
1450.0,0.005804999999999999
1451.0,0.0058519
1452.0,0.0058988
1453.0,0.0059457
1454.0,0.0059926
1455.0,0.0060395
1456.0,0.006204899999999999
1457.0,0.0063703
1458.0,0.0065357
1459.0,0.0067011
1460.0,0.006866499999999999
1461.0,0.0070319
1462.0,0.0071973
1463.0,0.0073627
1464.0,0.007528099999999999
1465.0,0.0076935
1466.0,0.0078436
1467.0,0.0079937
1468.0,0.0081438
1469.0,0.0082939
1470.0,0.008444
1471.0,0.0085941
1472.0,0.008744199999999999
1473.0,0.008894299999999999
1474.0,0.0090444
1475.0,0.0091945
1476.0,0.009160149999999999
1477.0,0.0091258
1478.0,0.00909145
1479.0,0.0090571
1480.0,0.00902275
1481.0,0.008988399999999999
1482.0,0.00895405
1483.0,0.0089197
1484.0,0.00888535
1485.0,0.008851
1486.0,0.0088276
1487.0,0.0088042
1488.0,0.0087808
1489.0,0.0087574
1490.0,0.008733999999999999
1491.0,0.008710599999999999
1492.0,0.008687199999999999
1493.0,0.0086638
1494.0,0.0086404
1495.0,0.008617
1496.0,0.008695
1497.0,0.008773
1498.0,0.008851
1499.0,0.008929
1500.0,0.009007000000000001
1501.0,0.009085000000000001
1502.0,0.009163000000000001
1503.0,0.009241000000000001
1504.0,0.009319000000000001
1505.0,0.009397
1506.0,0.009458000000000001
1507.0,0.009519000000000001
1508.0,0.00958
1509.0,0.009641
1510.0,0.009702
1511.0,0.009763
1512.0,0.009824000000000001
1513.0,0.009885
1514.0,0.009946
1515.0,0.010007
1516.0,0.0102748
1517.0,0.010542600000000001
1518.0,0.0108104
1519.0,0.0110782
1520.0,0.011346
1521.0,0.0116138
1522.0,0.0118816
1523.0,0.012149400000000001
1524.0,0.0124172
1525.0,0.012685
1526.0,0.012829
1527.0,0.012973
1528.0,0.013117
1529.0,0.013261
1530.0,0.013405
1531.0,0.013549
1532.0,0.013693
1533.0,0.013837
1534.0,0.013981
1535.0,0.014125
1536.0,0.014975
1537.0,0.015825
1538.0,0.016675
1539.0,0.017525
1540.0,0.018375
1541.0,0.019225
1542.0,0.020075
1543.0,0.020925
1544.0,0.021775
1545.0,0.022625
1546.0,0.022706
1547.0,0.022786999999999998
1548.0,0.022868
1549.0,0.022949
1550.0,0.023030000000000002
1551.0,0.023111
1552.0,0.023192
1553.0,0.023273000000000002
1554.0,0.023354
1555.0,0.023435
1556.0,0.0230735
1557.0,0.022712
1558.0,0.022350500000000002
1559.0,0.021989
1560.0,0.0216275
1561.0,0.021266
1562.0,0.0209045
1563.0,0.020543000000000002
1564.0,0.0201815
1565.0,0.01982
1566.0,0.0196815
1567.0,0.019543
1568.0,0.0194045
1569.0,0.019266000000000002
1570.0,0.0191275
1571.0,0.018989
1572.0,0.0188505
1573.0,0.018712
1574.0,0.0185735
1575.0,0.018435
1576.0,0.018386
1577.0,0.018337
1578.0,0.018288
1579.0,0.018239
1580.0,0.018189999999999998
1581.0,0.018141
1582.0,0.018092
1583.0,0.018043
1584.0,0.017994
1585.0,0.017945
1586.0,0.0180215
1587.0,0.018098
1588.0,0.0181745
1589.0,0.018251
1590.0,0.0183275
1591.0,0.018404
1592.0,0.0184805
1593.0,0.018557
1594.0,0.0186335
1595.0,0.01871
1596.0,0.018909000000000002
1597.0,0.019108
1598.0,0.019307
1599.0,0.019506
1600.0,0.019705
1601.0,0.019904
1602.0,0.020103
1603.0,0.020302
1604.0,0.020501
1605.0,0.0207
1606.0,0.0210115
1607.0,0.021322999999999998
1608.0,0.0216345
1609.0,0.021946
1610.0,0.0222575
1611.0,0.022569
1612.0,0.022880499999999998
1613.0,0.023192
1614.0,0.0235035
1615.0,0.023815
1616.0,0.024136499999999998
1617.0,0.024458
1618.0,0.0247795
1619.0,0.025101
1620.0,0.0254225
1621.0,0.025744
1622.0,0.0260655
1623.0,0.026386999999999997
1624.0,0.0267085
1625.0,0.02703
1626.0,0.027414499999999998
1627.0,0.027798999999999997
1628.0,0.0281835
1629.0,0.028568
1630.0,0.0289525
1631.0,0.029337
1632.0,0.029721499999999998
1633.0,0.030106
1634.0,0.0304905
1635.0,0.030875
1636.0,0.031002
1637.0,0.031129
1638.0,0.031256
1639.0,0.031383
1640.0,0.031509999999999996
1641.0,0.031637
1642.0,0.031764
1643.0,0.031891
1644.0,0.032018
1645.0,0.032145
1646.0,0.0335465
1647.0,0.034948
1648.0,0.0363495
1649.0,0.037751
1650.0,0.0391525
1651.0,0.040554
1652.0,0.0419555
1653.0,0.043357
1654.0,0.0447585
1655.0,0.04616
1656.0,0.045818
1657.0,0.045476
1658.0,0.045134
1659.0,0.044792
1660.0,0.04445
1661.0,0.044108
1662.0,0.043766
1663.0,0.043424
1664.0,0.043082
1665.0,0.04274
1666.0,0.0426075
1667.0,0.042475
1668.0,0.0423425
1669.0,0.04221
1670.0,0.042077500000000004
1671.0,0.041945
1672.0,0.0418125
1673.0,0.04168
1674.0,0.0415475
1675.0,0.041415
1676.0,0.042114
1677.0,0.042813
1678.0,0.043512
1679.0,0.044211
1680.0,0.04491
1681.0,0.045609
1682.0,0.046307999999999995
1683.0,0.047007
1684.0,0.047706
1685.0,0.048405
1686.0,0.0498035
1687.0,0.051202
1688.0,0.052600499999999994
1689.0,0.053999
1690.0,0.0553975
1691.0,0.056796
1692.0,0.058194499999999996
1693.0,0.059593
1694.0,0.060991500000000004
1695.0,0.06239
1696.0,0.0631685
1697.0,0.063947
1698.0,0.0647255
1699.0,0.065504
1700.0,0.0662825
1701.0,0.067061
1702.0,0.0678395
1703.0,0.068618
1704.0,0.0693965
1705.0,0.070175
1706.0,0.070488
1707.0,0.070801
1708.0,0.071114
1709.0,0.071427
1710.0,0.07174
1711.0,0.07205299999999999
1712.0,0.072366
1713.0,0.072679
1714.0,0.072992
1715.0,0.073305
1716.0,0.0736945
1717.0,0.074084
1718.0,0.0744735
1719.0,0.074863
1720.0,0.0752525
1721.0,0.075642
1722.0,0.0760315
1723.0,0.076421
1724.0,0.0768105
1725.0,0.0772
1726.0,0.07760550000000001
1727.0,0.078011
1728.0,0.0784165
1729.0,0.078822
1730.0,0.0792275
1731.0,0.079633
1732.0,0.0800385
1733.0,0.080444
1734.0,0.08084949999999999
1735.0,0.081255
1736.0,0.08276499999999999
1737.0,0.08427499999999999
1738.0,0.085785
1739.0,0.087295
1740.0,0.088805
1741.0,0.09031499999999999
1742.0,0.09182499999999999
1743.0,0.093335
1744.0,0.094845
1745.0,0.096355
1746.0,0.0981895
1747.0,0.100024
1748.0,0.10185849999999999
1749.0,0.103693
1750.0,0.1055275
1751.0,0.107362
1752.0,0.1091965
1753.0,0.11103099999999999
1754.0,0.1128655
1755.0,0.1147
1756.0,0.11621999999999999
1757.0,0.11774
1758.0,0.11925999999999999
1759.0,0.12078
1760.0,0.12229999999999999
1761.0,0.12381999999999999
1762.0,0.12533999999999998
1763.0,0.12686
1764.0,0.12838
1765.0,0.1299
1766.0,0.13188
1767.0,0.13385999999999998
1768.0,0.13584
1769.0,0.13782
1770.0,0.13979999999999998
1771.0,0.14178
1772.0,0.14376
1773.0,0.14574
1774.0,0.14772
1775.0,0.1497
1776.0,0.15119
1777.0,0.15268
1778.0,0.15417
1779.0,0.15566
1780.0,0.15715
1781.0,0.15864
1782.0,0.16013
1783.0,0.16161999999999999
1784.0,0.16311
1785.0,0.1646
1786.0,0.16499
1787.0,0.16538
1788.0,0.16577
1789.0,0.16616
1790.0,0.16655
1791.0,0.16694
1792.0,0.16733
1793.0,0.16772
1794.0,0.16811
1795.0,0.1685
1796.0,0.17125500000000002
1797.0,0.17401
1798.0,0.176765
1799.0,0.17952
1800.0,0.18227500000000002
1801.0,0.18503
1802.0,0.187785
1803.0,0.19054000000000001
1804.0,0.193295
1805.0,0.19605
1806.0,0.200435
1807.0,0.20482
1808.0,0.209205
1809.0,0.21359
1810.0,0.217975
1811.0,0.22236
1812.0,0.226745
1813.0,0.23113
1814.0,0.235515
1815.0,0.2399
1816.0,0.239875
1817.0,0.23985
1818.0,0.239825
1819.0,0.2398
1820.0,0.23977500000000002
1821.0,0.23975
1822.0,0.239725
1823.0,0.2397
1824.0,0.239675
1825.0,0.23965
1826.0,0.239605
1827.0,0.23956
1828.0,0.239515
1829.0,0.23947
1830.0,0.239425
1831.0,0.23938
1832.0,0.239335
1833.0,0.23929
1834.0,0.23924499999999999
1835.0,0.2392
1836.0,0.237215
1837.0,0.23523
1838.0,0.23324499999999998
1839.0,0.23126
1840.0,0.229275
1841.0,0.22729
1842.0,0.22530499999999998
1843.0,0.22332
1844.0,0.221335
1845.0,0.21935
1846.0,0.22194999999999998
1847.0,0.22455
1848.0,0.22715
1849.0,0.22975
1850.0,0.23235
1851.0,0.23495
1852.0,0.23755
1853.0,0.24015
1854.0,0.24275000000000002
1855.0,0.24535
1856.0,0.24951500000000001
1857.0,0.25368
1858.0,0.257845
1859.0,0.26201
1860.0,0.266175
1861.0,0.27033999999999997
1862.0,0.274505
1863.0,0.27867
1864.0,0.282835
1865.0,0.287
1866.0,0.29028
1867.0,0.29356
1868.0,0.29684
1869.0,0.30012
1870.0,0.3034
1871.0,0.30667999999999995
1872.0,0.30995999999999996
1873.0,0.31323999999999996
1874.0,0.31651999999999997
1875.0,0.3198
1876.0,0.32276499999999997
1877.0,0.32572999999999996
1878.0,0.32869499999999996
1879.0,0.33165999999999995
1880.0,0.33462499999999995
1881.0,0.33759
1882.0,0.340555
1883.0,0.34352
1884.0,0.346485
1885.0,0.34945
1886.0,0.35244
1887.0,0.35542999999999997
1888.0,0.35842
1889.0,0.36141
1890.0,0.3644
1891.0,0.36739
1892.0,0.37038
1893.0,0.37337000000000004
1894.0,0.37636000000000003
1895.0,0.37935
1896.0,0.38134
1897.0,0.38333
1898.0,0.38532
1899.0,0.38731
1900.0,0.3893
1901.0,0.39129
1902.0,0.39328
1903.0,0.39527
1904.0,0.39726
1905.0,0.39925
1906.0,0.403545
1907.0,0.40784
1908.0,0.412135
1909.0,0.41642999999999997
1910.0,0.420725
1911.0,0.42502
1912.0,0.429315
1913.0,0.43361
1914.0,0.437905
1915.0,0.4422
1916.0,0.441755
1917.0,0.44131
1918.0,0.44086499999999995
1919.0,0.44042
1920.0,0.439975
1921.0,0.43953
1922.0,0.43908499999999995
1923.0,0.43864
1924.0,0.438195
1925.0,0.43775
1926.0,0.434295
1927.0,0.43084
1928.0,0.42738499999999996
1929.0,0.42393
1930.0,0.420475
1931.0,0.41702
1932.0,0.413565
1933.0,0.41011
1934.0,0.406655
1935.0,0.4032
1936.0,0.41819
1937.0,0.43318
1938.0,0.44817
1939.0,0.46316
1940.0,0.47815
1941.0,0.49314
1942.0,0.50813
1943.0,0.52312
1944.0,0.5381100000000001
1945.0,0.5531
1946.0,0.555475
1947.0,0.5578500000000001
1948.0,0.560225
1949.0,0.5626
1950.0,0.564975
1951.0,0.56735
1952.0,0.569725
1953.0,0.5720999999999999
1954.0,0.574475
1955.0,0.57685
1956.0,0.58287
1957.0,0.58889
1958.0,0.5949099999999999
1959.0,0.60093
1960.0,0.60695
1961.0,0.61297
1962.0,0.61899
1963.0,0.62501
1964.0,0.63103
1965.0,0.63705
1966.0,0.63906
1967.0,0.64107
1968.0,0.64308
1969.0,0.64509
1970.0,0.6471
1971.0,0.64911
1972.0,0.65112
1973.0,0.65313
1974.0,0.6551400000000001
1975.0,0.65715
1976.0,0.65699
1977.0,0.65683
1978.0,0.65667
1979.0,0.65651
1980.0,0.65635
1981.0,0.6561899999999999
1982.0,0.65603
1983.0,0.65587
1984.0,0.65571
1985.0,0.65555
1986.0,0.660515
1987.0,0.66548
1988.0,0.670445
1989.0,0.67541
1990.0,0.680375
1991.0,0.6853400000000001
1992.0,0.6903050000000001
1993.0,0.69527
1994.0,0.700235
1995.0,0.7052
1996.0,0.712245
1997.0,0.71929
1998.0,0.7263350000000001
1999.0,0.73338
2000.0,0.740425
2001.0,0.74747
2002.0,0.7545149999999999
2003.0,0.76156
2004.0,0.768605
2005.0,0.77565
2006.0,0.78306
2007.0,0.79047
2008.0,0.7978799999999999
2009.0,0.80529
2010.0,0.8127
2011.0,0.82011
2012.0,0.82752
2013.0,0.83493
2014.0,0.84234
2015.0,0.84975
2016.0,0.852085
2017.0,0.85442
2018.0,0.856755
2019.0,0.85909
2020.0,0.861425
2021.0,0.86376
2022.0,0.866095
2023.0,0.86843
2024.0,0.870765
2025.0,0.8731
2026.0,0.88322
2027.0,0.89334
2028.0,0.90346
2029.0,0.9135800000000001
2030.0,0.9237
2031.0,0.93382
2032.0,0.94394
2033.0,0.95406
2034.0,0.96418
2035.0,0.9743
2036.0,0.98522
2037.0,0.99614
2038.0,1.00706
2039.0,1.01798
2040.0,1.0289
2041.0,1.03982
2042.0,1.05074
2043.0,1.0616599999999998
2044.0,1.0725799999999999
2045.0,1.0835
2046.0,1.0867499999999999
2047.0,1.0899999999999999
2048.0,1.09325
2049.0,1.0965
2050.0,1.09975
2051.0,1.103
2052.0,1.10625
2053.0,1.1095000000000002
2054.0,1.1127500000000001
2055.0,1.116
2056.0,1.1216000000000002
2057.0,1.1272
2058.0,1.1328
2059.0,1.1384
2060.0,1.1440000000000001
2061.0,1.1496
2062.0,1.1552
2063.0,1.1608
2064.0,1.1663999999999999
2065.0,1.172
2066.0,1.1888999999999998
2067.0,1.2058
2068.0,1.2227
2069.0,1.2396
2070.0,1.2565
2071.0,1.2733999999999999
2072.0,1.2903
2073.0,1.3072
2074.0,1.3241
2075.0,1.341
2076.0,1.3654
2077.0,1.3898
2078.0,1.4142
2079.0,1.4385999999999999
2080.0,1.463
2081.0,1.4874
2082.0,1.5118
2083.0,1.5362
2084.0,1.5606
2085.0,1.585
2086.0,1.6498
2087.0,1.7146
2088.0,1.7793999999999999
2089.0,1.8442
2090.0,1.909
2091.0,1.9738
2092.0,2.0386
2093.0,2.1034
2094.0,2.1682
2095.0,2.233
2096.0,2.3013500000000002
2097.0,2.3697
2098.0,2.43805
2099.0,2.5064
2100.0,2.57475
2101.0,2.6431
2102.0,2.71145
2103.0,2.7798
2104.0,2.84815
2105.0,2.9165
2106.0,2.97495
2107.0,3.0334
2108.0,3.09185
2109.0,3.1503
2110.0,3.20875
2111.0,3.2672
2112.0,3.32565
2113.0,3.3841
2114.0,3.4425499999999998
2115.0,3.501
2116.0,3.47795
2117.0,3.4549
2118.0,3.43185
2119.0,3.4088
2120.0,3.38575
2121.0,3.3627000000000002
2122.0,3.3396500000000002
2123.0,3.3166
2124.0,3.29355
2125.0,3.2705
2126.0,3.2881
2127.0,3.3057000000000003
2128.0,3.3233
2129.0,3.3409
2130.0,3.3585000000000003
2131.0,3.3761
2132.0,3.3937
2133.0,3.4112999999999998
2134.0,3.4289
2135.0,3.4465
2136.0,3.5191
2137.0,3.5917
2138.0,3.6643
2139.0,3.7369
2140.0,3.8095
2141.0,3.8821000000000003
2142.0,3.9547000000000003
2143.0,4.0273
2144.0,4.0999
2145.0,4.1725
2146.0,4.1324000000000005
2147.0,4.0923
2148.0,4.0522
2149.0,4.0121
2150.0,3.9720000000000004
2151.0,3.9319
2152.0,3.8918
2153.0,3.8517
2154.0,3.8116000000000003
2155.0,3.7715
2156.0,3.7307
2157.0,3.6899
2158.0,3.6491000000000002
2159.0,3.6083000000000003
2160.0,3.5675
2161.0,3.5267
2162.0,3.4859
2163.0,3.4451
2164.0,3.4043
2165.0,3.3635
2166.0,3.3938
2167.0,3.4241
2168.0,3.4544
2169.0,3.4847
2170.0,3.515
2171.0,3.5453
2172.0,3.5756
2173.0,3.6059
2174.0,3.6362
2175.0,3.6665
2176.0,3.762
2177.0,3.8575
2178.0,3.9530000000000003
2179.0,4.0485
2180.0,4.144
2181.0,4.2395
2182.0,4.335
2183.0,4.4305
2184.0,4.526
2185.0,4.6215
2186.0,4.64825
2187.0,4.675
2188.0,4.7017500000000005
2189.0,4.7285
2190.0,4.75525
2191.0,4.782
2192.0,4.80875
2193.0,4.835500000000001
2194.0,4.86225
2195.0,4.889
2196.0,4.8934
2197.0,4.8978
2198.0,4.902200000000001
2199.0,4.9066
2200.0,4.911
2201.0,4.9154
2202.0,4.9198
2203.0,4.9242
2204.0,4.928599999999999
2205.0,4.933
2206.0,4.85165
2207.0,4.7703
2208.0,4.68895
2209.0,4.6076
2210.0,4.52625
2211.0,4.4449000000000005
2212.0,4.36355
2213.0,4.2822000000000005
2214.0,4.20085
2215.0,4.1195
2216.0,4.22325
2217.0,4.327
2218.0,4.430750000000001
2219.0,4.5345
2220.0,4.63825
2221.0,4.742
2222.0,4.84575
2223.0,4.9495000000000005
2224.0,5.05325
2225.0,5.157
2226.0,5.29535
2227.0,5.4337
2228.0,5.57205
2229.0,5.7104
2230.0,5.84875
2231.0,5.9871
2232.0,6.12545
2233.0,6.2638
2234.0,6.40215
2235.0,6.5405
2236.0,6.499
2237.0,6.4575
2238.0,6.4159999999999995
2239.0,6.374499999999999
2240.0,6.333
2241.0,6.2915
2242.0,6.25
2243.0,6.2085
2244.0,6.167
2245.0,6.1255
2246.0,6.057449999999999
2247.0,5.9894
2248.0,5.92135
2249.0,5.8533
2250.0,5.78525
2251.0,5.7172
2252.0,5.649150000000001
2253.0,5.5811
2254.0,5.51305
2255.0,5.445
2256.0,5.3115000000000006
2257.0,5.178
2258.0,5.0445
2259.0,4.9110000000000005
2260.0,4.7775
2261.0,4.644
2262.0,4.5105
2263.0,4.377000000000001
2264.0,4.2435
2265.0,4.11
2266.0,4.1124
2267.0,4.114800000000001
2268.0,4.1172
2269.0,4.1196
2270.0,4.122
2271.0,4.1244000000000005
2272.0,4.1268
2273.0,4.1292
2274.0,4.131600000000001
2275.0,4.134
2276.0,4.26025
2277.0,4.3865
2278.0,4.5127500000000005
2279.0,4.639
2280.0,4.76525
2281.0,4.8915
2282.0,5.0177499999999995
2283.0,5.144
2284.0,5.27025
2285.0,5.3965
2286.0,5.3523499999999995
2287.0,5.308199999999999
2288.0,5.26405
2289.0,5.2199
2290.0,5.17575
2291.0,5.1316
2292.0,5.08745
2293.0,5.0433
2294.0,4.99915
2295.0,4.955
2296.0,5.0011
2297.0,5.0472
2298.0,5.0933
2299.0,5.1394
2300.0,5.1855
2301.0,5.2316
2302.0,5.2777
2303.0,5.3238
2304.0,5.3699
2305.0,5.416
2306.0,5.40395
2307.0,5.391900000000001
2308.0,5.37985
2309.0,5.3678
